-310
-307
-270
-256
-246
-235
-232
-236
-251
-266
-270
-272
-274
-269
-251
-245
-251
-271
-298
-325
-343
-356
-355
-336
-294
-257
-222
-180
-141
-101
-42
41
136
257
386
461
512
500
405
284
178
79
-5
-54
-77
-108
-147
-190
-229
-268
-293
-305
-311
-310
-294
-287
-282
-277
-273
-276
-276
-274
-264
-247
-231
-222
-231
-242
-256
-273
-277
-278
-275
-266
-248
-235
-231
-235
-246
-264
-275
-276
-269
-258
-238
-229
-225
-232
-237
-253
-263
-265
-261
-252
-239
-236
-232
-230
-240
-256
-262
-261
-253
-247
-229
-219
-218
-223
-235
-244
-254
-262
-248
-243
-226
-213
-200
-210
-217
-238
-245
-247
-251
-241
-221
-210
-202
-206
-212
-228
-235
-238
-232
-221
-202
-193
-186
-186
-190
-210
-216
-215
-214
-203
-180
-171
-163
-166
-167
-183
-188
-191
-191
-180
-159
-145
-131
-127
-139
-159
-169
-167
-156
-144
-123
-111
-100
-101
-107
-120
-128
-127
-121
-114
-96
-90
-84
-87
-92
-111
-123
-132
-131
-129
-113
-111
-115
-134
-144
-166
-177
-190
-192
-187
-182
-177
-181
-195
-201
-230
-246
-253
-251
-252
-238
-231
-226
-232
-240
-262
-274
-284
-279
-270
-250
-242
-237
-240
-248
-270
-279
-282
-280
-279
-264
-254
-254
-256
-256
-274
-285
-288
-284
-271
-259
-249
-245
-246
-257
-278
-289
-299
-295
-285
-270
-260
-254
-251
-250
-270
-285
-292
-292
-284
-270
-260
-252
-256
-262
-278
-289
-294
-291
-282
-266
-257
-253
-254
-259
-274
-289
-294
-289
-289
-270
-252
-251
-257
-265
-279
-289
-293
-296
-294
-272
-260
-250
-250
-262
-283
-296
-301
-297
-294
-275
-266
-257
-260
-266
-286
-298
-304
-303
-295
-276
-265
-263
-266
-267
-283
-296
-306
-303
-305
-280
-269
-267
-265
-268
-293
-308
-314
-312
-307
-286
-279
-276
-273
-283
-297
-305
-315
-312
-310
-292
-285
-276
-275
-277
-294
-306
-313
-315
-313
-292
-276
-273
-277
-278
-298
-308
-318
-318
-315
-291
-284
-274
-277
-283
-301
-314
-318
-322
-322
-311
-291
-278
-282
-286
-308
-318
-323
-324
-317
-300
-289
-280
-282
-285
-304
-312
-320
-322
-325
-307
-291
-280
-285
-290
-307
-319
-327
-323
-316
-303
-288
-287
-288
-294
-313
-328
-334
-328
-325
-306
-294
-286
-285
-288
-310
-328
-332
-327
-325
-310
-300
-294
-296
-293
-310
-319
-323
-323
-323
-311
-298
-287
-284
-284
-299
-321
-327
-326
-324
-313
-301
-297
-291
-290
-311
-322
-332
-333
-330
-315
-303
-295
-294
-292
-313
-325
-337
-332
-329
-315
-298
-291
-290
-299
-313
-328
-340
-339
-335
-312
-303
-296
-300
-299
-311
-315
-322
-323
-318
-294
-281
-274
-276
-277
-289
-301
-313
-317
-307
-281
-268
-261
-258
-254
-262
-272
-282
-284
-289
-277
-262
-250
-248
-250
-276
-287
-287
-291
-296
-282
-272
-274
-273
-275
-298
-321
-331
-336
-336
-321
-306
-299
-304
-308
-324
-341
-349
-347
-351
-336
-321
-311
-314
-315
-336
-351
-353
-351
-351
-340
-324
-314
-319
-319
-329
-347
-359
-354
-362
-351
-336
-333
-334
-347
-370
-393
-414
-432
-443
-428
-388
-350
-317
-278
-248
-210
-154
-72
18
142
273
366
421
434
365
247
145
46
-45
-99
-133
-169
-214
-264
-305
-344
-373
-392
-401
-389
-371
-365
-364
-358
-358
-357
-358
-354
-351
-333
-316
-315
-315
-317
-327
-347
-356
-361
-350
-342
-323
-318
-319
-319
-330
-343
-351
-351
-347
-337
-320
-312
-307
-305
-317
-331
-339
-347
-340
-328
-312
-304
-305
-307
-314
-336
-343
-342
-339
-326
-301
-294
-295
-299
-310
-324
-327
-330
-328
-320
-301
-291
-290
-297
-305
-319
-329
-331
-323
-314
-288
-279
-278
-278
-289
-301
-308
-308
-306
-301
-279
-264
-261
-259
-270
-287
-297
-297
-292
-283
-262
-246
-237
-236
-238
-247
-260
-264
-257
-239
-222
-210
-204
-208
-216
-229
-232
-234
-231
-219
-196
-185
-176
-178
-189
-200
-207
-206
-194
-186
-169
-159
-155
-164
-171
-189
-201
-211
-206
-207
-191
-183
-190
-202
-219
-235
-253
-263
-266
-265
-256
-252
-257
-266
-282
-306
-318
-324
-321
-316
-303
-298
-298
-301
-313
-336
-349
-351
-343
-339
-329
-313
-314
-320
-329
-342
-355
-360
-358
-357
-337
-326
-323
-334
-337
-349
-359
-363
-359
-353
-334
-328
-331
-330
-334
-350
-359
-368
-364
-355
-328
-322
-323
-330
-336
-351
-358
-365
-363
-358
-333
-325
-325
-332
-334
-353
-362
-367
-360
-357
-336
-322
-319
-323
-329
-353
-365
-373
-365
-357
-336
-337
-331
-334
-337
-354
-361
-363
-358
-353
-342
-328
-325
-326
-335
-346
-360
-368
-368
-359
-342
-331
-328
-334
-344
-355
-364
-370
-366
-362
-352
-344
-335
-341
-346
-358
-371
-376
-371
-368
-352
-335
-332
-330
-337
-364
-374
-380
-379
-369
-355
-338
-339
-339
-344
-361
-377
-380
-380
-379
-363
-352
-345
-349
-347
-367
-381
-386
-381
-379
-363
-349
-341
-341
-350
-370
-383
-384
-379
-378
-361
-355
-350
-349
-354
-371
-382
-387
-382
-374
-362
-355
-351
-355
-356
-367
-380
-392
-387
-384
-368
-353
-343
-347
-345
-365
-384
-396
-392
-386
-368
-359
-352
-356
-355
-368
-379
-384
-381
-379
-365
-358
-357
-352
-354
-369
-378
-386
-392
-390
-369
-356
-349
-357
-363
-374
-387
-390
-386
-382
-363
-356
-350
-356
-354
-374
-386
-399
-391
-385
-364
-351
-351
-358
-362
-376
-385
-394
-389
-384
-364
-358
-355
-354
-356
-371
-383
-398
-396
-390
-374
-363
-351
-358
-365
-383
-393
-396
-394
-387
-371
-362
-355
-360
-363
-372
-378
-391
-387
-381
-366
-346
-331
-338
-337
-354
-367
-375
-369
-370
-345
-324
-316
-314
-311
-321
-340
-346
-347
-340
-322
-310
-301
-301
-299
-317
-341
-346
-341
-340
-334
-319
-315
-322
-331
-354
-370
-382
-389
-389
-377
-361
-359
-361
-358
-377
-393
-400
-396
-392
-379
-367
-367
-366
-367
-376
-394
-404
-410
-406
-387
-374
-367
-371
-374
-390
-403
-408
-409
-406
-387
-372
-367
-371
-385
-418
-440
-454
-467
-479
-471
-445
-406
-373
-335
-307
-270
-216
-143
-60
52
176
280
340
384
346
232
107
8
-91
-163
-198
-215
-237
-269
-323
-362
-390
-410
-417
-416
-415
-406
-406
-411
-424
-428
-421
-409
-399
-372
-361
-354
-354
-355
-374
-384
-389
-394
-396
-376
-364
-359
-356
-360
-376
-393
-401
-397
-393
-376
-359
-349
-355
-354
-364
-379
-381
-382
-384
-366
-350
-346
-345
-342
-354
-371
-380
-380
-376
-360
-343
-333
-334
-338
-351
-367
-372
-366
-366
-357
-336
-327
-325
-329
-341
-359
-367
-368
-360
-349
-328
-320
-317
-323
-332
-343
-347
-343
-342
-333
-318
-305
-299
-305
-309
-320
-327
-331
-321
-306
-289
-286
-282
-281
-297
-308
-308
-306
-292
-275
-256
-242
-243
-243
-256
-272
-273
-270
-263
-247
-225
-216
-216
-213
-217
-231
-240
-239
-229
-215
-200
-195
-190
-192
-200
-220
-236
-242
-245
-237
-223
-216
-220
-226
-242
-268
-281
-295
-297
-295
-278
-272
-277
-289
-308
-331
-340
-346
-353
-347
-330
-323
-326
-331
-343
-365
-381
-384
-384
-376
-349
-340
-340
-350
-360
-377
-386
-383
-378
-369
-356
-345
-349
-352
-360
-373
-386
-391
-387
-377
-361
-358
-352
-358
-364
-381
-392
-396
-386
-379
-368
-355
-347
-347
-357
-376
-384
-388
-379
-372
-356
-351
-343
-353
-368
-376
-386
-392
-391
-384
-363
-350
-347
-349
-356
-373
-383
-390
-383
-370
-354
-352
-350
-345
-349
-370
-385
-388
-389
-378
-361
-354
-355
-356
-362
-381
-391
-391
-391
-384
-364
-355
-351
-359
-368
-392
-396
-400
-394
-383
-365
-356
-352
-354
-364
-384
-390
-396
-392
-388
-373
-361
-351
-355
-367
-389
-398
-405
-404
-398
-374
-361
-355
-356
-365
-394
-408
-406
-404
-400
-379
-368
-361
-363
-371
-393
-403
-401
-400
-392
-379
-372
-363
-369
-371
-389
-399
-403
-397
-389
-372
-368
-363
-361
-370
-391
-406
-409
-410
-398
-376
-375
-375
-376
-376
-394
-403
-409
-409
-394
-376
-367
-361
-368
-374
-388
-401
-412
-409
-403
-382
-375
-368
-368
-378
-396
-402
-407
-403
-397
-383
-377
-369
-371
-375
-385
-402
-408
-404
-400
-381
-368
-360
-364
-373
-394
-410
-408
-403
-401
-382
-373
-369
-375
-377
-390
-405
-408
-406
-402
-382
-371
-361
-367
-376
-389
-394
-396
-393
-390
-366
-343
-339
-341
-350
-369
-379
-381
-378
-369
-349
-332
-318
-313
-312
-331
-343
-352
-358
-355
-336
-323
-310
-316
-323
-339
-353
-360
-355
-355
-339
-332
-333
-335
-344
-371
-384
-397
-390
-390
-380
-375
-368
-373
-378
-396
-408
-413
-407
-402
-386
-375
-369
-369
-376
-400
-409
-423
-413
-406
-393
-384
-375
-380
-377
-398
-413
-425
-417
-417
-402
-391
-386
-393
-406
-446
-466
-481
-487
-492
-465
-426
-384
-352
-310
-282
-237
-175
-94
-3
123
248
332
374
368
268
150
40
-64
-155
-193
-214
-237
-278
-318
-367
-397
-419
-431
-442
-433
-418
-412
-409
-412
-425
-425
-427
-410
-406
-382
-369
-363
-369
-371
-389
-405
-406
-399
-400
-382
-373
-364
-367
-371
-383
-399
-404
-401
-392
-373
-360
-358
-361
-368
-382
-397
-404
-402
-394
-376
-363
-355
-355
-357
-373
-387
-391
-392
-383
-361
-345
-346
-346
-350
-362
-372
-383
-380
-375
-360
-345
-337
-334
-338
-358
-363
-370
-371
-370
-354
-340
-328
-329
-325
-339
-356
-364
-356
-351
-335
-322
-311
-306
-308
-323
-332
-343
-340
-335
-319
-299
-283
-282
-287
-300
-309
-314
-311
-307
-285
-272
-263
-258
-252
-266
-275
-280
-281
-275
-250
-225
-214
-214
-223
-240
-258
-253
-245
-244
-227
-212
-205
-208
-207
-223
-242
-252
-253
-248
-243
-239
-233
-240
-248
-268
-287
-304
-313
-320
-311
-298
-295
-306
-315
-336
-355
-367
-371
-374
-364
-347
-339
-355
-347
-365
-379
-388
-387
-386
-380
-366
-356
-353
-363
-379
-397
-407
-408
-397
-383
-370
-364
-366
-367
-379
-397
-405
-399
-399
-385
-374
-366
-363
-364
-377
-397
-399
-405
-403
-397
-380
-366
-361
-366
-381
-398
-401
-398
-396
-387
-367
-361
-364
-371
-377
-393
-401
-400
-401
-388
-375
-365
-361
-364
-377
-388
-398
-400
-393
-384
-363
-353
-355
-360
-371
-393
-403
-407
-404
-388
-371
-363
-356
-362
-374
-387
-400
-407
-406
-397
-372
-360
-360
-366
-380
-396
-402
-406
-402
-393
-375
-368
-365
-372
-381
-400
-403
-409
-406
-397
-378
-372
-367
-365
-377
-394
-406
-411
-407
-402
-385
-376
-371
-373
-378
-399
-414
-416
-408
-399
-382
-370
-372
-377
-384
-404
-417
-415
-411
-405
-392
-376
-372
-379
-390
-408
-417
-423
-419
-408
-389
-382
-381
-382
-393
-409
-418
-420
-418
-411
-394
-380
-381
-382
-393
-410
-414
-418
-416
-409
-397
-384
-380
-383
-393
-410
-416
-421
-419
-416
-399
-389
-383
-383
-390
-406
-415
-417
-417
-411
-400
-386
-382
-385
-390
-411
-422
-430
-427
-420
-400
-388
-386
-389
-397
-416
-419
-424
-424
-415
-398
-389
-390
-393
-391
-411
-423
-430
-423
-410
-400
-389
-386
-380
-388
-413
-416
-422
-426
-425
-398
-382
-384
-389
-390
-416
-432
-433
-427
-418
-400
-391
-390
-392
-398
-417
-420
-427
-421
-418
-402
-392
-382
-392
-402
-418
-422
-432
-426
-422
-403
-392
-394
-394
-397
-412
-417
-417
-409
-399
-383
-372
-368
-369
-369
-386
-401
-410
-405
-391
-368
-352
-349
-355
-359
-372
-374
-379
-377
-366
-346
-342
-338
-345
-351
-367
-376
-376
-374
-368
-358
-356
-354
-359
-370
-396
-413
-421
-418
-418
-404
-399
-394
-400
-402
-416
-429
-430
-434
-431
-414
-405
-402
-406
-405
-424
-435
-442
-440
-433
-415
-408
-406
-408
-409
-431
-442
-447
-450
-438
-419
-412
-406
-412
-424
-454
-479
-497
-504
-510
-498
-476
-443
-417
-379
-363
-326
-273
-199
-115
2
124
244
319
360
336
238
129
40
-51
-119
-175
-218
-274
-322
-376
-415
-447
-460
-470
-458
-442
-436
-446
-439
-447
-445
-443
-434
-422
-406
-393
-383
-388
-397
-413
-422
-431
-430
-424
-412
-397
-386
-388
-390
-405
-414
-428
-427
-423
-402
-386
-378
-380
-387
-409
-421
-424
-414
-411
-397
-386
-378
-378
-375
-392
-405
-409
-415
-418
-396
-382
-371
-375
-370
-387
-397
-407
-404
-404
-387
-368
-362
-364
-365
-382
-393
-397
-388
-384
-370
-354
-340
-342
-347
-368
-376
-382
-383
-376
-355
-339
-330
-337
-338
-356
-368
-368
-360
-347
-330
-320
-318
-314
-315
-332
-342
-344
-335
-326
-308
-289
-280
-286
-282
-293
-304
-309
-299
-294
-270
-258
-250
-247
-247
-263
-274
-279
-271
-259
-240
-231
-223
-220
-225
-243
-256
-269
-274
-270
-261
-249
-243
-251
-258
-279
-296
-311
-314
-318
-309
-306
-309
-312
-326
-353
-366
-375
-379
-379
-369
-364
-359
-363
-361
-383
-401
-409
-412
-407
-390
-375
-370
-375
-382
-397
-415
-423
-425
-425
-401
-389
-382
-381
-383
-399
-415
-421
-421
-423
-407
-387
-379
-376
-378
-398
-417
-423
-422
-420
-402
-386
-379
-373
-377
-400
-418
-421
-421
-416
-401
-382
-375
-383
-383
-398
-414
-418
-417
-412
-400
-387
-383
-387
-378
-394
-413
-418
-412
-409
-399
-386
-375
-379
-381
-392
-414
-419
-415
-412
-398
-384
-376
-377
-380
-394
-409
-416
-418
-419
-391
-374
-371
-371
-381
-398
-416
-427
-423
-410
-394
-381
-379
-382
-385
-396
-410
-416
-413
-409
-398
-383
-378
-381
-398
-409
-423
-427
-429
-427
-410
-391
-380
-379
-385
-401
-417
-427
-427
-423
-411
-396
-389
-383
-387
-398
-418
-426
-431
-426
-409
-390
-385
-379
-380
-400
-417
-422
-424
-425
-413
-394
-386
-383
-380
-393
-412
-423
-427
-424
-414
-396
-389
-386
-388
-398
-420
-426
-424
-420
-417
-403
-390
-388
-387
-400
-416
-423
-418
-418
-408
-392
-380
-386
-389
-400
-416
-423
-424
-421
-408
-396
-389
-390
-387
-398
-415
-429
-433
-430
-417
-392
-380
-377
-383
-396
-411
-422
-418
-419
-409
-392
-388
-384
-385
-399
-419
-422
-423
-423
-412
-398
-386
-382
-384
-399
-409
-413
-418
-421
-419
-403
-393
-389
-393
-402
-414
-422
-428
-419
-409
-393
-387
-386
-387
-396
-409
-423
-422
-421
-413
-398
-386
-384
-388
-399
-412
-421
-427
-419
-408
-390
-385
-378
-385
-397
-414
-417
-424
-424
-413
-391
-381
-383
-386
-394
-420
-422
-425
-422
-420
-399
-388
-380
-382
-393
-414
-422
-427
-423
-410
-392
-383
-375
-375
-378
-392
-404
-408
-401
-391
-367
-358
-360
-362
-372
-386
-383
-380
-382
-376
-352
-335
-328
-333
-338
-359
-376
-374
-365
-363
-345
-337
-337
-333
-341
-361
-378
-390
-394
-388
-369
-363
-366
-376
-384
-402
-411
-417
-417
-419
-403
-391
-386
-391
-399
-411
-427
-434
-430
-425
-407
-397
-387
-386
-398
-418
-427
-440
-436
-429
-408
-394
-387
-400
-411
-425
-435
-439
-437
-430
-419
-427
-432
-451
-467
-495
-511
-501
-471
-423
-367
-317
-264
-202
-142
-77
22
130
234
308
366
343
242
130
34
-77
-164
-227
-264
-294
-316
-346
-362
-389
-413
-442
-462
-473
-471
-466
-446
-419
-400
-383
-390
-402
-410
-412
-412
-411
-389
-374
-369
-374
-381
-398
-413
-417
-418
-405
-384
-377
-374
-379
-378
-393
-401
-405
-405
-403
-382
-363
-362
-368
-375
-394
-407
-416
-403
-392
-372
-363
-353
-354
-361
-379
-391
-397
-392
-387
-371
-354
-351
-352
-357
-373
-379
-389
-383
-377
-355
-340
-330
-330
-336
-362
-380
-385
-373
-367
-346
-333
-323
-325
-330
-345
-353
-358
-357
-350
-329
-318
-308
-311
-312
-326
-328
-333
-326
-316
-298
-287
-276
-277
-277
-283
-296
-303
-299
-289
-269
-259
-244
-241
-242
-262
-269
-271
-260
-257
-233
-222
-205
-201
-208
-226
-234
-239
-238
-230
-201
-198
-203
-203
-201
-223
-248
-258
-260
-259
-246
-240
-240
-250
-259
-282
-297
-312
-319
-322
-307
-301
-305
-312
-315
-338
-355
-365
-366
-362
-352
-346
-342
-346
-337
-362
-378
-387
-383
-380
-371
-358
-354
-353
-357
-373
-381
-390
-386
-382
-367
-359
-347
-352
-362
-392
-400
-402
-400
-398
-373
-364
-361
-355
-358
-370
-386
-393
-394
-393
-376
-360
-354
-353
-360
-381
-390
-400
-391
-390
-377
-364
-351
-352
-354
-371
-382
-394
-397
-387
-373
-359
-345
-351
-353
-371
-383
-389
-384
-383
-371
-352
-347
-349
-356
-372
-387
-394
-392
-387
-370
-358
-351
-355
-357
-368
-383
-393
-388
-381
-369
-363
-357
-350
-350
-367
-384
-393
-391
-387
-372
-358
-352
-355
-357
-370
-387
-398
-396
-392
-371
-358
-351
-355
-355
-374
-386
-392
-393
-391
-388
-375
-362
-357
-364
-376
-392
-402
-401
-397
-381
-362
-358
-361
-362
-372
-387
-393
-388
-392
-383
-367
-359
-361
-362
-377
-390
-400
-401
-394
-381
-365
-363
-364
-368
-380
-390
-396
-391
-386
-375
-366
-356
-354
-355
-372
-389
-399
-404
-397
-385
-368
-357
-356
-360
-375
-393
-402
-393
-394
-380
-367
-367
-359
-358
-375
-390
-397
-401
-396
-383
-365
-361
-359
-359
-370
-387
-398
-393
-387
-371
-365
-357
-352
-361
-375
-396
-397
-393
-396
-382
-360
-351
-353
-360
-369
-381
-390
-394
-387
-380
-364
-360
-360
-357
-365
-384
-394
-397
-390
-382
-363
-355
-351
-354
-365
-381
-391
-391
-388
-379
-365
-358
-355
-358
-367
-387
-393
-391
-390
-379
-367
-354
-349
-352
-363
-375
-383
-385
-380
-368
-350
-336
-327
-330
-337
-353
-367
-370
-358
-353
-335
-319
-313
-312
-318
-329
-335
-339
-332
-325
-306
-298
-293
-292
-305
-326
-339
-336
-331
-319
-307
-308
-301
-315
-333
-355
-367
-376
-375
-373
-355
-344
-350
-356
-365
-377
-384
-389
-387
-378
-359
-356
-351
-356
-363
-376
-385
-397
-400
-387
-370
-364
-363
-364
-372
-394
-399
-400
-396
-384
-374
-365
-360
-362
-371
-401
-425
-438
-447
-451
-444
-440
-427
-401
-378
-360
-327
-274
-215
-136
-37
66
180
285
345
375
357
259
157
63
-21
-104
-156
-193
-229
-283
-335
-365
-379
-389
-387
-387
-388
-401
-407
-424
-416
-415
-393
-376
-357
-341
-338
-350
-351
-368
-373
-377
-380
-378
-355
-345
-334
-337
-349
-363
-374
-379
-377
-371
-351
-342
-336
-336
-338
-351
-360
-363
-366
-361
-341
-330
-329
-332
-339
-354
-361
-361
-361
-354
-334
-328
-317
-316
-326
-346
-353
-354
-354
-339
-329
-320
-311
-312
-314
-337
-340
-341
-337
-331
-315
-305
-300
-297
-300
-320
-327
-333
-336
-331
-309
-294
-284
-289
-293
-305
-317
-321
-313
-307
-283
-272
-264
-263
-264
-277
-283
-288
-280
-277
-258
-244
-235
-234
-236
-249
-262
-261
-256
-247
-224
-212
-200
-200
-200
-223
-231
-229
-224
-219
-199
-184
-174
-179
-183
-197
-207
-219
-213
-212
-195
-190
-190
-199
-210
-232
-250
-264
-270
-271
-254
-252
-244
-263
-278
-305
-317
-320
-319
-323
-311
-307
-303
-311
-327
-343
-354
-359
-363
-360
-342
-336
-325
-327
-336
-358
-367
-372
-371
-366
-355
-340
-336
-344
-342
-363
-370
-379
-372
-373
-353
-342
-335
-332
-344
-367
-372
-382
-375
-378
-364
-346
-340
-338
-341
-363
-377
-379
-378
-373
-355
-343
-341
-341
-342
-361
-370
-378
-375
-378
-353
-340
-335
-335
-336
-359
-376
-378
-370
-368
-355
-342
-336
-339
-338
-359
-370
-378
-374
-371
-356
-342
-338
-340
-340
-353
-372
-387
-380
-377
-362
-342
-332
-335
-346
-366
-371
-382
-380
-374
-366
-354
-344
-345
-345
-357
-373
-385
-381
-380
-366
-350
-340
-341
-345
-368
-383
-386
-385
-380
-362
-350
-344
-350
-350
-362
-380
-388
-381
-378
-362
-347
-341
-349
-358
-378
-390
-393
-396
-390
-370
-354
-352
-351
-349
-363
-378
-389
-389
-386
-371
-365
-354
-355
-355
-371
-388
-393
-386
-387
-372
-354
-346
-346
-352
-369
-379
-389
-387
-385
-370
-359
-346
-351
-356
-370
-380
-381
-372
-380
-375
-360
-352
-352
-358
-372
-379
-385
-392
-389
-374
-362
-356
-355
-355
-374
-383
-392
-389
-384
-371
-361
-347
-349
-352
-369
-382
-393
-391
-385
-375
-358
-351
-357
-359
-368
-383
-391
-384
-380
-364
-349
-338
-341
-349
-365
-386
-393
-400
-397
-377
-360
-346
-345
-357
-371
-388
-388
-390
-390
-374
-357
-346
-347
-351
-370
-384
-387
-390
-397
-377
-360
-349
-347
-349
-365
-382
-391
-392
-387
-374
-356
-345
-345
-347
-363
-363
-370
-368
-366
-354
-337
-325
-318
-323
-338
-352
-360
-361
-349
-335
-314
-298
-290
-296
-317
-334
-340
-340
-338
-329
-310
-296
-294
-298
-309
-326
-335
-344
-344
-337
-325
-315
-318
-330
-342
-367
-379
-381
-378
-377
-366
-356
-359
-356
-365
-379
-392
-398
-391
-385
-365
-357
-355
-363
-376
-390
-404
-405
-397
-384
-372
-361
-360
-363
-372
-386
-391
-399
-408
-399
-383
-379
-388
-403
-428
-457
-474
-474
-453
-417
-364
-317
-271
-228
-173
-115
-40
64
181
289
365
411
389
286
174
58
-45
-127
-181
-219
-248
-281
-319
-349
-379
-409
-425
-431
-432
-422
-400
-391
-378
-366
-366
-376
-376
-380
-379
-373
-355
-349
-341
-342
-358
-373
-383
-388
-379
-367
-350
-343
-340
-341
-352
-367
-375
-378
-371
-361
-339
-328
-325
-333
-338
-361
-365
-363
-365
-350
-334
-328
-333
-327
-329
-350
-364
-368
-362
-355
-333
-323
-319
-320
-330
-344
-357
-353
-343
-336
-325
-314
-310
-312
-316
-328
-336
-343
-335
-332
-316
-300
-291
-292
-295
-309
-324
-329
-321
-315
-293
-283
-278
-274
-280
-292
-294
-295
-286
-284
-271
-256
-250
-254
-251
-270
-273
-278
-270
-259
-233
-220
-216
-216
-221
-235
-239
-238
-235
-229
-205
-192
-184
-181
-188
-210
-213
-215
-207
-196
-183
-169
-161
-169
-177
-204
-213
-216
-219
-219
-206
-201
-203
-210
-226
-256
-269
-284
-287
-284
-266
-264
-272
-282
-288
-314
-327
-335
-333
-333
-318
-310
-311
-318
-324
-342
-354
-359
-362
-362
-340
-330
-326
-329
-331
-351
-362
-366
-365
-358
-339
-331
-325
-333
-341
-358
-361
-367
-366
-365
-347
-337
-332
-332
-337
-354
-365
-373
-371
-366
-341
-324
-318
-333
-341
-361
-372
-376
-367
-366
-352
-334
-331
-333
-340
-355
-366
-374
-369
-358
-338
-328
-322
-327
-334
-351
-361
-364
-360
-360
-343
-331
-322
-328
-330
-343
-356
-361
-356
-355
-340
-331
-325
-329
-335
-351
-363
-370
-365
-362
-341
-327
-325
-330
-333
-351
-364
-369
-365
-365
-350
-335
-326
-330
-330
-354
-369
-373
-367
-364
-342
-333
-331
-333
-334
-358
-373
-377
-374
-370
-352
-340
-333
-335
-333
-356
-370
-375
-372
-370
-357
-343
-339
-340
-342
-359
-368
-377
-380
-379
-352
-340
-337
-343
-351
-363
-374
-375
-375
-375
-358
-340
-332
-338
-341
-361
-377
-386
-382
-380
-360
-343
-337
-341
-341
-362
-380
-382
-376
-375
-358
-342
-339
-339
-345
-362
-374
-381
-377
-376
-357
-347
-340
-341
-344
-362
-371
-375
-379
-380
-363
-343
-332
-332
-340
-368
-378
-382
-379
-375
-361
-354
-339
-340
-336
-359
-371
-380
-381
-378
-358
-343
-336
-339
-342
-366
-379
-380
-383
-382
-358
-346
-333
-338
-340
-361
-374
-378
-378
-382
-364
-347
-340
-339
-341
-363
-374
-383
-382
-379
-362
-351
-342
-343
-347
-360
-374
-380
-378
-381
-362
-351
-342
-334
-334
-356
-374
-380
-377
-377
-363
-352
-342
-345
-341
-357
-375
-386
-381
-371
-361
-343
-334
-335
-334
-349
-360
-364
-365
-368
-352
-336
-325
-323
-325
-333
-351
-357
-350
-345
-326
-314
-306
-296
-290
-306
-322
-330
-332
-326
-311
-295
-290
-291
-295
-309
-320
-325
-326
-333
-313
-300
-309
-311
-313
-336
-363
-375
-383
-375
-360
-344
-339
-343
-351
-366
-380
-386
-387
-381
-363
-351
-344
-347
-349
-362
-381
-389
-388
-388
-377
-356
-346
-352
-357
-368
-381
-393
-388
-383
-370
-360
-360
-364
-380
-408
-428
-453
-471
-475
-443
-404
-366
-319
-277
-245
-207
-141
-50
52
175
301
381
417
389
278
160
50
-53
-132
-172
-185
-220
-264
-309
-342
-377
-400
-415
-421
-412
-398
-387
-379
-377
-379
-379
-380
-381
-376
-359
-346
-331
-334
-341
-345
-360
-383
-383
-366
-359
-345
-334
-333
-339
-350
-363
-371
-374
-370
-359
-340
-329
-327
-331
-338
-356
-367
-374
-366
-353
-333
-324
-324
-327
-335
-352
-361
-357
-355
-343
-323
-312
-312
-315
-326
-340
-350
-350
-347
-336
-320
-311
-308
-306
-315
-331
-346
-347
-338
-330
-310
-303
-294
-293
-303
-319
-325
-323
-322
-316
-294
-283
-279
-277
-286
-308
-305
-301
-295
-286
-266
-259
-251
-243
-251
-267
-278
-279
-276
-266
-247
-227
-217
-217
-226
-245
-248
-239
-236
-222
-202
-190
-185
-188
-191
-203
-210
-212
-205
-198
-178
-166
-159
-164
-177
-197
-212
-215
-211
-207
-200
-195
-200
-211
-214
-240
-257
-274
-278
-273
-260
-257
-258
-264
-282
-310
-331
-339
-335
-331
-316
-313
-307
-311
-322
-344
-353
-360
-359
-354
-336
-330
-322
-321
-329
-354
-369
-371
-365
-355
-337
-330
-328
-337
-343
-358
-366
-366
-365
-366
-350
-338
-328
-331
-339
-365
-375
-373
-372
-365
-344
-332
-322
-326
-334
-360
-376
-371
-364
-358
-341
-332
-327
-333
-336
-355
-362
-372
-369
-362
-343
-333
-328
-330
-332
-353
-364
-368
-361
-351
-335
-327
-328
-331
-339
-360
-369
-369
-361
-359
-343
-331
-322
-322
-330
-347
-358
-363
-362
-355
-336
-330
-329
-336
-341
-361
-369
-369
-362
-361
-341
-331
-328
-331
-333
-353
-364
-371
-369
-366
-350
-339
-331
-337
-344
-360
-364
-370
-371
-370
-352
-340
-337
-339
-339
-358
-366
-380
-375
-374
-354
-340
-335
-340
-344
-360
-371
-377
-377
-371
-356
-352
-340
-343
-349
-357
-367
-375
-377
-371
-355
-349
-352
-350
-349
-374
-375
-377
-372
-372
-355
-347
-345
-343
-355
-373
-379
-383
-380
-377
-357
-344
-341
-344
-350
-366
-375
-383
-377
-369
-351
-344
-342
-345
-342
-357
-368
-379
-381
-383
-356
-343
-342
-343
-344
-369
-375
-379
-376
-371
-355
-349
-337
-341
-345
-364
-377
-378
-381
-378
-359
-345
-335
-339
-342
-367
-373
-382
-379
-374
-361
-347
-338
-343
-343
-362
-376
-381
-375
-376
-363
-346
-336
-341
-346
-368
-380
-385
-376
-378
-359
-345
-344
-347
-351
-368
-374
-378
-374
-367
-345
-336
-327
-327
-328
-336
-347
-357
-355
-351
-332
-319
-303
-299
-303
-319
-324
-325
-320
-324
-308
-297
-293
-299
-297
-309
-318
-323
-324
-324
-310
-295
-295
-297
-303
-326
-339
-353
-361
-364
-350
-334
-328
-342
-345
-355
-372
-384
-380
-386
-369
-352
-345
-351
-349
-364
-381
-387
-387
-385
-366
-347
-347
-355
-356
-369
-380
-393
-390
-384
-368
-351
-345
-353
-355
-372
-386
-406
-427
-435
-429
-432
-432
-419
-392
-373
-349
-318
-264
-199
-111
-11
96
203
305
351
384
361
264
161
77
-14
-90
-153
-186
-234
-282
-332
-354
-368
-374
-374
-375
-381
-391
-410
-420
-418
-405
-389
-360
-341
-329
-328
-337
-354
-368
-377
-374
-369
-356
-341
-336
-335
-333
-344
-359
-374
-381
-372
-355
-336
-322
-326
-336
-345
-360
-368
-361
-357
-341
-326
-318
-317
-319
-335
-352
-356
-351
-356
-339
-321
-313
-316
-311
-324
-340
-350
-346
-340
-327
-312
-307
-311
-307
-318
-331
-337
-335
-333
-321
-306
-293
-291
-294
-304
-318
-326
-320
-315
-304
-291
-281
-278
-276
-295
-306
-315
-313
-304
-289
-272
-263
-256
-256
-273
-284
-285
-282
-273
-256
-240
-227
-222
-226
-235
-247
-253
-251
-244
-228
-211
-201
-201
-203
-214
-223
-224
-222
-214
-200
-175
-165
-165
-172
-185
-199
-203
-194
-193
-188
-186
-184
-183
-188
-206
-234
-250
-258
-254
-248
-233
-232
-242
-251
-273
-304
-319
-319
-310
-308
-301
-294
-290
-297
-315
-334
-347
-350
-349
-337
-321
-313
-314
-314
-321
-344
-362
-364
-361
-346
-329
-318
-322
-325
-334
-346
-355
-363
-358
-346
-326
-323
-322
-327
-335
-354
-362
-362
-359
-353
-333
-320
-321
-327
-335
-346
-359
-357
-352
-345
-323
-318
-314
-322
-333
-347
-359
-361
-347
-340
-322
-317
-313
-317
-321
-344
-356
-359
-357
-346
-325
-317
-314
-314
-327
-340
-345
-352
-353
-345
-330
-320
-312
-317
-326
-351
-353
-353
-356
-346
-330
-321
-318
-319
-323
-342
-353
-358
-357
-345
-331
-324
-319
-318
-331
-346
-353
-354
-354
-347
-333
-321
-316
-317
-331
-352
-360
-364
-355
-345
-331
-326
-319
-320
-333
-352
-359
-359
-361
-354
-336
-328
-323
-325
-332
-354
-356
-359
-360
-350
-330
-326
-326
-326
-335
-358
-366
-363
-362
-355
-334
-329
-329
-327
-329
-352
-361
-360
-359
-351
-333
-328
-325
-329
-333
-345
-358
-359
-360
-356
-335
-329
-330
-330
-332
-349
-360
-365
-360
-353
-336
-326
-324
-328
-332
-351
-362
-368
-366
-361
-336
-323
-319
-327
-330
-346
-359
-362
-358
-353
-340
-327
-322
-322
-327
-344
-361
-368
-364
-354
-332
-325
-321
-324
-333
-355
-360
-366
-363
-353
-336
-327
-321
-328
-335
-350
-354
-361
-361
-353
-333
-321
-323
-331
-333
-350
-360
-362
-359
-357
-336
-333
-321
-321
-326
-342
-356
-366
-363
-352
-333
-322
-317
-322
-326
-344
-351
-357
-355
-353
-337
-330
-322
-323
-326
-343
-351
-354
-350
-346
-324
-308
-296
-297
-305
-320
-330
-330
-326
-328
-307
-289
-292
-294
-291
-305
-308
-313
-300
-299
-282
-274
-266
-268
-272
-293
-303
-306
-300
-296
-281
-272
-267
-273
-278
-306
-322
-323
-321
-324
-312
-307
-307
-314
-317
-334
-346
-357
-355
-350
-329
-321
-319
-324
-327
-344
-354
-358
-358
-354
-336
-323
-323
-326
-324
-345
-358
-362
-362
-358
-343
-326
-320
-324
-332
-352
-366
-379
-389
-403
-398
-394
-392
-394
-379
-373
-351
-316
-277
-226
-149
-59
38
135
251
337
387
413
377
278
197
110
18
-65
-120
-177
-234
-282
-313
-334
-337
-339
-340
-351
-355
-378
-396
-393
-374
-356
-329
-315
-305
-304
-305
-323
-337
-344
-343
-350
-331
-311
-300
-303
-312
-333
-344
-347
-344
-341
-324
-306
-299
-299
-304
-316
-329
-328
-328
-332
-316
-298
-289
-293
-293
-309
-329
-336
-333
-324
-307
-293
-286
-287
-289
-307
-317
-321
-315
-313
-296
-281
-276
-275
-269
-283
-298
-314
-312
-299
-283
-273
-268
-270
-272
-288
-294
-299
-297
-294
-275
-259
-245
-244
-246
-261
-275
-281
-275
-270
-256
-241
-228
-225
-226
-238
-250
-254
-253
-241
-223
-208
-196
-195
-195
-210
-221
-224
-218
-216
-194
-178
-166
-165
-166
-180
-189
-183
-175
-175
-157
-141
-133
-128
-133
-146
-156
-160
-166
-169
-148
-135
-135
-140
-147
-166
-190
-204
-212
-212
-204
-196
-192
-200
-212
-235
-253
-268
-267
-269
-261
-251
-248
-248
-256
-278
-291
-305
-312
-315
-297
-282
-281
-275
-283
-297
-310
-317
-316
-309
-304
-287
-282
-288
-280
-294
-311
-328
-330
-322
-305
-289
-282
-278
-285
-300
-313
-322
-325
-319
-300
-287
-282
-286
-286
-300
-316
-325
-326
-315
-300
-285
-277
-286
-289
-296
-309
-314
-316
-313
-299
-285
-276
-280
-281
-290
-300
-309
-320
-316
-305
-283
-277
-276
-275
-295
-313
-319
-317
-313
-304
-284
-279
-278
-279
-288
-298
-314
-313
-309
-293
-277
-266
-274
-285
-293
-311
-317
-317
-314
-301
-285
-276
-275
-278
-285
-299
-315
-317
-310
-297
-282
-280
-281
-282
-286
-299
-310
-319
-319
-307
-289
-283
-283
-288
-295
-308
-317
-319
-316
-309
-287
-280
-283
-284
-298
-315
-321
-320
-315
-308
-289
-280
-278
-283
-290
-310
-320
-322
-318
-309
-295
-280
-279
-282
-292
-309
-319
-322
-320
-312
-294
-281
-280
-280
-286
-304
-319
-320
-316
-304
-288
-287
-275
-274
-287
-308
-318
-324
-315
-305
-293
-286
-284
-284
-291
-301
-312
-315
-310
-299
-285
-278
-270
-278
-285
-300
-312
-318
-317
-310
-295
-289
-285
-284
-289
-305
-315
-318
-309
-301
-286
-273
-271
-279
-285
-303
-314
-321
-316
-309
-281
-269
-272
-278
-284
-306
-313
-316
-310
-306
-285
-277
-278
-280
-280
-298
-309
-317
-313
-306
-282
-274
-269
-272
-279
-300
-317
-320
-311
-304
-283
-274
-274
-280
-281
-298
-307
-309
-305
-298
-282
-272
-269
-270
-274
-292
-300
-311
-312
-298
-272
-254
-252
-257
-267
-277
-289
-289
-280
-274
-258
-240
-237
-237
-239
-259
-264
-262
-254
-246
-233
-224
-218
-218
-225
-242
-248
-254
-253
-244
-220
-214
-213
-215
-227
-256
-270
-275
-274
-273
-261
-257
-251
-260
-267
-287
-295
-305
-303
-304
-286
-271
-270
-276
-276
-291
-307
-316
-313
-306
-285
-271
-268
-266
-273
-298
-312
-317
-312
-311
-291
-277
-265
-275
-282
-298
-309
-321
-333
-341
-330
-337
-337
-352
-354
-349
-328
-300
-254
-200
-126
-48
34
121
222
322
390
438
464
410
315
216
121
21
-53
-111
-150
-190
-225
-256
-248
-257
-274
-293
-311
-332
-344
-350
-340
-320
-289
-270
-257
-257
-263
-279
-283
-290
-288
-287
-268
-254
-248
-253
-259
-273
-284
-288
-284
-281
-260
-254
-250
-245
-248
-269
-277
-280
-274
-276
-254
-244
-236
-236
-240
-263
-271
-275
-270
-263
-244
-235
-226
-227
-230
-249
-256
-262
-262
-257
-238
-224
-219
-223
-225
-245
-249
-257
-256
-250
-229
-216
-210
-208
-210
-227
-242
-247
-239
-232
-213
-193
-186
-186
-189
-208
-224
-225
-222
-211
-195
-178
-169
-174
-172
-188
-197
-196
-190
-192
-169
-149
-143
-145
-146
-159
-171
-172
-163
-153
-135
-123
-109
-115
-114
-124
-129
-123
-119
-120
-100
-80
-75
-76
-74
-93
-107
-109
-103
-102
-87
-74
-68
-76
-88
-105
-124
-140
-139
-142
-132
-120
-124
-131
-143
-165
-187
-204
-208
-205
-190
-187
-182
-190
-197
-219
-233
-240
-241
-242
-226
-220
-214
-221
-227
-240
-254
-266
-265
-256
-241
-230
-229
-225
-226
-243
-257
-263
-262
-260
-241
-230
-222
-217
-228
-245
-254
-268
-269
-266
-247
-236
-225
-223
-226
-247
-261
-269
-267
-263
-244
-223
-215
-217
-220
-238
-253
-258
-253
-259
-250
-231
-220
-224
-222
-238
-256
-258
-258
-256
-243
-228
-224
-226
-228
-241
-253
-265
-265
-261
-240
-225
-214
-213
-215
-234
-250
-263
-260
-254
-240
-228
-224
-222
-227
-242
-257
-262
-264
-261
-242
-225
-217
-216
-219
-229
-246
-266
-267
-261
-247
-234
-225
-227
-234
-242
-254
-263
-261
-261
-252
-240
-227
-224
-229
-243
-260
-269
-268
-266
-258
-242
-231
-233
-238
-248
-261
-266
-269
-269
-251
-231
-227
-229
-232
-252
-269
-273
-275
-277
-262
-243
-236
-229
-228
-242
-261
-269
-272
-271
-260
-240
-230
-225
-230
-243
-261
-263
-266
-271
-258
-241
-237
-236
-239
-250
-265
-272
-280
-277
-259
-241
-231
-231
-232
-247
-263
-271
-270
-266
-257
-240
-232
-225
-231
-244
-265
-276
-273
-266
-259
-242
-232
-222
-230
-248
-271
-274
-271
-269
-264
-240
-234
-230
-234
-248
-265
-275
-276
-272
-262
-244
-234
-229
-234
-243
-262
-270
-272
-267
-258
-243
-231
-231
-230
-233
-247
-257
-261
-252
-234
-215
-205
-210
-211
-223
-241
-246
-239
-224
-214
-195
-181
-172
-178
-190
-208
-219
-219
-216
-208
-189
-179
-177
-186
-192
-203
-210
-216
-226
-220
-208
-206
-201
-208
-227
-252
-266
-274
-269
-260
-247
-237
-231
-236
-242
-261
-268
-270
-272
-269
-257
-244
-241
-239
-247
-263
-273
-277
-280
-273
-254
-242
-243
-247
-256
-273
-283
-283
-278
-272
-261
-258
-265
-285
-304
-333
-357
-361
-355
-327
-277
-220
-175
-134
-86
-33
33
113
224
340
431
491
510
445
324
194
69
-26
-86
-112
-113
-131
-159
-199
-222
-259
-285
-307
-315
-315
-296
-287
-280
-276
-271
-281
-278
-275
-275
-264
-239
-228
-223
-233
-246
-263
-269
-271
-269
-264
-247
-232
-225
-229
-240
-258
-275
-276
-267
-262
-239
-234
-225
-230
-235
-253
-264
-263
-258
-250
-232
-229
-223
-222
-226
-241
-244
-259
-252
-240
-223
-219
-207
-211
-216
-237
-243
-246
-247
-239
-223
-208
-203
-208
-215
-227
-231
-236
-241
-231
-211
-199
-193
-197
-195
-211
-222
-227
-221
-220
-199
-182
-175
-176
-183
-196
-210
-215
-202
-188
-172
-164
-153
-164
-161
-173
-179
-179
-169
-160
-143
-127
-119
-120
-118
-133
-144
-144
-138
-135
-111
-98
-92
-92
-97
-111
-121
-127
-118
-109
-89
-79
-74
-79
-86
-106
-117
-127
-122
-122
-112
-111
-110
-119
-133
-156
-172
-186
-188
-187
-173
-170
-169
-177
-186
-210
-224
-239
-245
-243
-222
-213
-214
-220
-225
-242
-256
-262
-260
-256
-240
-232
-225
-227
-230
-251
-264
-266
-254
-258
-239
-230
-224
-228
-232
-249
-259
-271
-270
-268
-248
-235
-230
-237
-235
-252
-264
-269
-274
-268
-244
-233
-229
-227
-230
-249
-261
-265
-264
-264
-241
-230
-231
-236
-235
-249
-261
-271
-267
-268
-251
-239
-225
-223
-225
-247
-266
-270
-266
-265
-245
-232
-225
-227
-228
-248
-261
-269
-268
-265
-244
-231
-231
-233
-228
-249
-262
-273
-269
-267
-253
-240
-237
-239
-241
-258
-266
-270
-268
-265
-250
-241
-233
-239
-241
-260
-266
-274
-275
-276
-254
-241
-237
-237
-238
-254
-270
-280
-283
-276
-260
-242
-237
-238
-242
-263
-277
-277
-273
-277
-262
-247
-241
-241
-244
-268
-278
-283
-286
-283
-265
-247
-242
-240
-244
-261
-272
-281
-279
-278
-257
-242
-243
-246
-248
-264
-280
-287
-286
-281
-263
-249
-244
-248
-248
-263
-277
-284
-283
-278
-259
-246
-245
-245
-251
-272
-283
-286
-285
-282
-268
-251
-242
-244
-248
-264
-274
-277
-282
-283
-268
-254
-247
-244
-243
-257
-270
-281
-283
-278
-269
-252
-247
-247
-252
-268
-276
-287
-286
-286
-264
-250
-244
-245
-250
-263
-274
-281
-282
-284
-274
-260
-245
-246
-252
-267
-279
-288
-285
-283
-269
-259
-248
-242
-236
-251
-264
-271
-271
-261
-248
-229
-220
-222
-223
-239
-257
-256
-250
-244
-232
-210
-198
-197
-201
-216
-227
-233
-239
-234
-214
-199
-193
-192
-194
-208
-229
-241
-243
-242
-244
-227
-220
-231
-241
-258
-272
-283
-289
-280
-270
-257
-251
-254
-267
-275
-292
-298
-298
-297
-283
-262
-254
-261
-259
-271
-293
-305
-301
-298
-292
-274
-261
-260
-265
-280
-292
-304
-301
-298
-294
-288
-290
-307
-323
-343
-376
-386
-368
-329
-282
-228
-178
-130
-62
4
77
171
280
376
446
499
477
378
271
155
39
-49
-103
-142
-179
-203
-229
-249
-267
-294
-325
-342
-345
-342
-330
-303
-283
-267
-263
-265
-283
-285
-285
-285
-272
-258
-258
-260
-259
-264
-279
-292
-294
-290
-277
-266
-256
-250
-244
-254
-272
-281
-287
-287
-275
-257
-243
-242
-247
-254
-270
-279
-276
-275
-265
-250
-240
-237
-243
-251
-269
-273
-275
-268
-256
-240
-230
-225
-222
-238
-259
-268
-269
-262
-253
-239
-224
-220
-221
-230
-238
-252
-261
-253
-237
-220
-218
-210
-210
-218
-230
-232
-238
-235
-219
-201
-192
-188
-190
-194
-206
-213
-216
-214
-206
-181
-167
-163
-165
-168
-184
-189
-189
-177
-165
-146
-133
-123
-130
-141
-157
-156
-158
-150
-139
-117
-108
-103
-101
-107
-118
-126
-131
-129
-115
-97
-87
-87
-99
-109
-124
-136
-145
-145
-142
-129
-129
-132
-141
-159
-184
-199
-204
-211
-214
-195
-186
-190
-197
-215
-240
-247
-261
-265
-256
-239
-231
-228
-232
-242
-265
-275
-274
-272
-271
-256
-242
-240
-244
-252
-270
-278
-281
-284
-278
-262
-249
-239
-244
-253
-270
-281
-286
-285
-274
-254
-243
-239
-244
-243
-266
-274
-280
-283
-276
-259
-247
-241
-243
-250
-270
-278
-280
-279
-267
-252
-241
-236
-244
-252
-269
-275
-277
-274
-269
-260
-248
-239
-240
-244
-265
-277
-279
-274
-266
-250
-241
-236
-237
-246
-264
-276
-274
-271
-268
-254
-246
-243
-247
-251
-265
-275
-281
-279
-277
-259
-246
-234
-237
-241
-263
-276
-291
-284
-277
-256
-247
-241
-247
-251
-267
-275
-284
-291
-277
-259
-249
-234
-239
-243
-265
-285
-293
-286
-282
-263
-257
-258
-259
-263
-276
-280
-287
-283
-279
-261
-252
-249
-251
-260
-279
-292
-298
-292
-284
-260
-253
-252
-254
-254
-272
-283
-294
-290
-286
-263
-252
-247
-253
-256
-273
-284
-292
-288
-283
-264
-254
-249
-258
-257
-276
-289
-292
-282
-280
-266
-254
-247
-249
-249
-269
-283
-289
-287
-285
-270
-257
-250
-253
-256
-278
-290
-295
-289
-283
-271
-256
-244
-249
-253
-271
-286
-293
-295
-286
-269
-263
-260
-260
-266
-278
-287
-287
-286
-284
-266
-256
-250
-254
-250
-272
-290
-291
-290
-289
-273
-257
-249
-251
-253
-273
-281
-284
-284
-274
-265
-260
-262
-263
-266
-275
-285
-294
-293
-290
-276
-262
-251
-257
-257
-271
-287
-289
-288
-284
-266
-254
-250
-250
-251
-267
-274
-278
-274
-272
-253
-238
-229
-226
-224
-237
-253
-264
-260
-248
-228
-218
-212
-210
-210
-220
-229
-233
-238
-238
-226
-206
-199
-196
-197
-215
-228
-241
-241
-240
-228
-215
-212
-220
-226
-245
-263
-276
-282
-282
-264
-253
-246
-247
-254
-271
-280
-286
-285
-287
-283
-270
-257
-254
-262
-274
-285
-296
-298
-294
-274
-265
-253
-252
-260
-282
-298
-306
-298
-292
-279
-271
-261
-264
-278
-310
-333
-350
-359
-367
-356
-329
-297
-264
-229
-206
-176
-120
-43
47
164
288
400
469
509
471
366
262
168
75
4
-42
-83
-129
-183
-231
-276
-305
-317
-329
-318
-301
-296
-295
-289
-290
-290
-290
-282
-279
-266
-248
-236
-237
-248
-265
-275
-282
-279
-276
-267
-259
-249
-247
-248
-256
-269
-281
-282
-275
-261
-247
-237
-236
-240
-247
-262
-273
-272
-271
-258
-238
-233
-229
-228
-238
-256
-272
-271
-261
-246
-234
-226
-223
-226
-232
-250
-258
-260
-253
-245
-227
-217
-217
-217
-224
-229
-238
-241
-242
-229
-205
-198
-203
-210
-217
-228
-236
-232
-226
-216
-198
-189
-181
-178
-186
-203
-213
-217
-207
-191
-175
-160
-159
-164
-170
-178
-181
-180
-179
-165
-141
-129
-122
-127
-141
-151
-157
-155
-146
-134
-106
-90
-83
-88
-96
-112
-123
-120
-112
-99
-78
-73
-68
-70
-80
-101
-118
-119
-112
-106
-93
-86
-88
-99
-119
-144
-158
-164
-167
-165
-158
-154
-155
-168
-182
-205
-220
-221
-223
-225
-206
-200
-197
-205
-222
-243
-251
-257
-256
-248
-231
-226
-221
-227
-234
-249
-267
-267
-258
-246
-235
-230
-226
-224
-233
-245
-262
-270
-271
-262
-242
-231
-224
-226
-239
-254
-267
-265
-264
-253
-236
-228
-228
-225
-237
-251
-257
-266
-263
-258
-242
-230
-225
-228
-237
-248
-259
-263
-262
-254
-235
-236
-229
-231
-232
-248
-261
-265
-262
-251
-233
-225
-218
-216
-229
-249
-256
-261
-260
-254
-237
-227
-224
-228
-232
-246
-261
-265
-267
-259
-241
-232
-222
-225
-226
-248
-259
-264
-260
-253
-237
-227
-229
-231
-238
-257
-261
-263
-261
-262
-242
-232
-224
-228
-230
-259
-267
-267
-266
-261
-242
-232
-226
-234
-245
-256
-264
-273
-267
-264
-248
-233
-230
-236
-239
-256
-267
-278
-277
-266
-250
-237
-227
-228
-240
-259
-270
-271
-269
-270
-253
-239
-232
-235
-243
-260
-272
-279
-277
-264
-246
-238
-237
-242
-244
-260
-268
-276
-274
-266
-252
-244
-235
-231
-240
-259
-266
-268
-267
-264
-247
-235
-234
-234
-241
-266
-272
-277
-269
-264
-248
-239
-239
-240
-244
-263
-273
-275
-271
-266
-247
-238
-236
-241
-248
-264
-271
-276
-272
-270
-250
-237
-234
-235
-242
-259
-268
-277
-274
-269
-251
-242
-234
-235
-242
-262
-269
-267
-268
-269
-253
-241
-235
-235
-237
-256
-270
-273
-270
-264
-250
-235
-226
-228
-233
-251
-256
-256
-247
-244
-225
-212
-207
-208
-214
-232
-238
-238
-232
-222
-198
-180
-176
-180
-192
-207
-217
-229
-223
-216
-198
-188
-180
-185
-190
-206
-226
-235
-238
-236
-223
-218
-211
-213
-226
-249
-265
-280
-280
-279
-262
-247
-243
-248
-245
-265
-272
-278
-279
-279
-256
-242
-238
-245
-249
-268
-280
-289
-291
-281
-266
-251
-243
-247
-253
-275
-278
-289
-288
-280
-270
-275
-290
-307
-320
-342
-361
-359
-327
-294
-234
-175
-115
-59
10
69
155
251
361
425
486
481
393
280
175
50
-50
-108
-132
-142
-159
-187
-205
-220
-237
-269
-303
-326
-328
-330
-311
-291
-278
-266
-256
-263
-272
-277
-280
-274
-256
-241
-242
-239
-239
-252
-268
-276
-270
-266
-251
-241
-239
-237
-237
-248
-264
-271
-266
-261
-245
-229
-222
-224
-230
-249
-260
-270
-270
-266
-247
-228
-218
-216
-223
-237
-251
-256
-256
-251
-234
-220
-207
-212
-216
-233
-242
-248
-253
-248
-230
-216
-202
-205
-206
-223
-235
-245
-240
-231
-210
-198
-202
-199
-192
-198
-213
-220
-222
-224
-196
-181
-175
-180
-178
-187
-196
-206
-204
-199
-177
-158
-157
-155
-150
-163
-170
-176
-175
-168
-150
-128
-112
-112
-107
-126
-140
-143
-142
-137
-114
-95
-85
-86
-85
-96
-114
-119
-114
-112
-103
-81
-73
-81
-88
-102
-114
-130
-134
-136
-127
-120
-122
-132
-136
-151
-184
-200
-202
-200
-193
-189
-185
-190
-195
-214
-231
-239
-247
-245
-234
-219
-213
-213
-220
-236
-253
-262
-266
-266
-251
-236
-225
-228
-230
-241
-261
-266
-269
-271
-256
-236
-231
-230
-235
-244
-261
-273
-278
-277
-264
-243
-239
-238
-241
-257
-267
-273
-270
-264
-251
-234
-231
-231
-235
-246
-261
-267
-270
-265
-254
-239
-235
-233
-231
-242
-259
-268
-272
-266
-250
-234
-226
-220
-225
-239
-260
-266
-273
-270
-262
-246
-236
-234
-237
-247
-268
-278
-277
-272
-259
-240
-231
-234
-240
-248
-269
-278
-276
-271
-262
-249
-237
-230
-226
-236
-260
-270
-276
-276
-269
-257
-243
-241
-241
-254
-273
-279
-277
-276
-265
-248
-247
-246
-247
-256
-278
-284
-282
-284
-271
-263
-249
-245
-246
-256
-274
-285
-292
-287
-278
-260
-245
-246
-254
-262
-276
-281
-285
-281
-279
-259
-252
-248
-253
-261
-273
-280
-283
-281
-278
-262
-248
-243
-253
-268
